== NetCashProvidedByUsedInOperatingActivities
   2008-12-31 270.211 2011-02-25 10-K
   2009-12-31 293.591 2011-02-25 10-K
   2010-12-31 261.715 2011-02-25 10-K
   2015-12-31 323.759 2018-02-26 10-K
   2016-12-31 325.299 2019-02-21 10-K
   2017-12-31 324.729 2020-02-24 10-K
   2018-12-31 313.628 2021-02-19 10-K
   2019-12-31 514.457 2022-02-18 10-K
   2020-12-31 570.153 2023-02-17 10-K
   2021-12-31 363.443 2024-02-09 10-K
   2022-12-31 478.617 2025-02-07 10-K
   2023-12-31 575.239 2026-02-06 10-K
   2024-12-31 643.413 2026-02-06 10-K
   2025-12-31 569.999 2026-02-06 10-K
== NetCashProvidedByUsedInOperatingActivitiesContinuingOperations
   2009-12-31 279.789 2012-02-24 10-K
   2010-12-31 278.695 2013-02-28 10-K
   2011-12-31 261.042 2014-02-28 10-K
   2012-12-31 313.892 2015-02-27 10-K
   2013-12-31 286.1 2016-02-25 10-K
   2014-12-31 316.329 2017-02-27 10-K
   2015-12-31 324.515 2017-02-27 10-K
   2016-12-31 327.193 2017-02-27 10-K
== ShareBasedCompensation
   2008-12-31 11.054 2011-02-25 10-K
   2009-12-31 9.761 2012-02-24 10-K
   2010-12-31 11.215 2013-02-28 10-K
   2011-12-31 13.753 2014-02-28 10-K
   2012-12-31 12.695 2015-02-27 10-K
   2013-12-31 14.392 2016-02-25 10-K
   2014-12-31 19.749 2017-02-27 10-K
   2015-12-31 20.612 2018-02-26 10-K
   2016-12-31 19.824 2019-02-21 10-K
   2017-12-31 18.924 2020-02-24 10-K
   2018-12-31 19.561 2021-02-19 10-K
   2019-12-31 23.893 2022-02-18 10-K
   2020-12-31 34.148 2023-02-17 10-K
   2021-12-31 38.87 2024-02-09 10-K
   2022-12-31 40.937 2025-02-07 10-K
   2023-12-31 41.293 2026-02-06 10-K
   2024-12-31 47.65 2026-02-06 10-K
   2025-12-31 43.941 2026-02-06 10-K
== AllocatedShareBasedCompensationExpense
== PaymentsToAcquirePropertyPlantAndEquipment
   2008-12-31 203.6 2011-02-25 10-K
   2009-12-31 144.926 2012-02-24 10-K
   2010-12-31 118.804 2013-02-28 10-K
   2011-12-31 179.692 2014-02-28 10-K
   2012-12-31 174.053 2015-02-27 10-K
   2013-12-31 151.51 2016-02-25 10-K
   2014-12-31 161.94 2017-02-27 10-K
   2015-12-31 149.323 2018-02-26 10-K
   2016-12-31 128.986 2019-02-21 10-K
   2017-12-31 156.624 2020-02-24 10-K
   2018-12-31 211.252 2021-02-19 10-K
   2019-12-31 242.276 2022-02-18 10-K
   2020-12-31 245.954 2023-02-17 10-K
   2021-12-31 307.935 2024-02-09 10-K
   2022-12-31 310.427 2025-02-07 10-K
   2023-12-31 312.342 2026-02-06 10-K
   2024-12-31 276.481 2026-02-06 10-K
   2025-12-31 270.419 2026-02-06 10-K
== Depreciation
   2008-12-31 124.884 2011-02-25 10-K
   2009-12-31 127.709 2012-02-24 10-K
   2010-12-31 129.339 2013-02-28 10-K
   2011-12-31 132.048 2014-02-28 10-K
   2012-12-31 133.845 2015-02-27 10-K
   2013-12-31 144.923 2016-02-25 10-K
   2014-12-31 146.893 2017-02-27 10-K
   2015-12-31 134.647 2018-02-26 10-K
   2016-12-31 145.485 2019-02-21 10-K
   2017-12-31 142.755 2020-02-24 10-K
   2018-12-31 156.292 2021-02-19 10-K
   2019-12-31 166.944 2022-02-18 10-K
   2020-12-31 180.513 2023-02-17 10-K
   2021-12-31 193.781 2024-02-09 10-K
   2022-12-31 190.132 2025-02-07 10-K
   2023-12-31 203.873 2026-02-06 10-K
   2024-12-31 219.667 2026-02-06 10-K
   2025-12-31 242.312 2026-02-06 10-K
== AmortizationOfIntangibleAssets
   2010-12-31 3.62 2013-02-28 10-K
   2011-12-31 2.195 2014-02-28 10-K
   2012-12-31 3.177 2015-02-27 10-K
   2013-12-31 5.033 2016-02-25 10-K
   2014-12-31 5.325 2017-02-27 10-K
   2015-12-31 4.246 2018-02-26 10-K
   2016-12-31 9.317 2019-02-21 10-K
   2017-12-31 10.339 2020-02-24 10-K
   2018-12-31 15.455 2021-02-19 10-K
   2019-12-31 27.608 2022-02-18 10-K
   2020-12-31 39.787 2023-02-17 10-K
   2021-12-31 41.072 2024-02-09 10-K
   2022-12-31 43.574 2025-02-07 10-K
   2023-12-31 44.72 2026-02-06 10-K
   2024-12-31 44.117 2026-02-06 10-K
   2025-12-31 45.051 2026-02-06 10-K
== DepreciationDepletionAndAmortization
   2008-12-31 131.145 2011-02-25 10-K
   2009-12-31 133.013 2012-02-24 10-K
   2010-12-31 132.959 2013-02-28 10-K
   2011-12-31 134.243 2014-02-28 10-K
   2012-12-31 137.022 2015-02-27 10-K
   2013-12-31 149.956 2016-02-25 10-K
   2014-12-31 152.218 2017-02-27 10-K
   2015-12-31 138.893 2018-02-26 10-K
   2016-12-31 154.802 2019-02-21 10-K
   2017-12-31 153.094 2020-02-24 10-K
   2018-12-31 171.747 2021-02-19 10-K
   2019-12-31 194.552 2022-02-18 10-K
   2020-12-31 220.3 2023-02-17 10-K
   2021-12-31 234.853 2024-02-09 10-K
   2022-12-31 233.706 2025-02-07 10-K
   2023-12-31 248.593 2026-02-06 10-K
   2024-12-31 263.784 2026-02-06 10-K
   2025-12-31 287.363 2026-02-06 10-K
== DepreciationAmortizationAndAccretionNet
== OperatingIncomeLoss
   2008-12-31 234.171 2011-02-25 10-K
   2009-12-31 198.381 2012-02-24 10-K
   2010-12-31 268.014 2013-02-28 10-K
   2011-12-31 287.096 2014-02-28 10-K
   2012-12-31 258.913 2015-02-27 10-K
   2013-12-31 284.574 2016-02-25 10-K
   2014-12-31 306.416 2017-02-27 10-K
   2015-12-31 324.145 2018-02-26 10-K
   2016-12-31 313.689 2019-02-21 10-K
   2017-12-31 323.487 2020-02-24 10-K
   2018-12-31 286.269 2021-02-19 10-K
   2019-12-31 371.693 2022-02-18 10-K
   2020-12-31 339.498 2023-02-17 10-K
   2021-12-31 347.348 2024-02-09 10-K
   2022-12-31 379.273 2025-02-07 10-K
   2023-12-31 404.019 2026-02-06 10-K
   2024-12-31 496.497 2026-02-06 10-K
   2025-12-31 501.038 2026-02-06 10-K
== Revenues
   2009-12-31 1855.39 2012-02-24 10-K
   2010-12-31 2090.51 2013-02-28 10-K
   2011-12-31 2356.162 2013-02-28 10-K
   2012-12-31 2346.447 2013-02-28 10-K
   2016-12-31 2330.934 2019-02-21 10-K
   2017-12-31 2469.283 2020-02-24 10-K
   2018-12-31 2764.761 2020-02-24 10-K
   2019-12-31 2859.732 2020-02-24 10-K
   2020-12-31 2929.34 2023-02-17 10-K
   2021-12-31 3227.221 2024-02-09 10-K
   2022-12-31 3322.249 2025-02-07 10-K
   2023-12-31 3487.45 2026-02-06 10-K
   2024-12-31 3582.89 2026-02-06 10-K
   2025-12-31 3777.181 2026-02-06 10-K
== RevenueFromContractWithCustomerExcludingAssessedTax
   2018-12-31 2764.761 2021-02-19 10-K
   2019-12-31 2859.732 2022-02-18 10-K
   2020-12-31 2929.34 2023-02-17 10-K
   2021-12-31 3227.221 2024-02-09 10-K
   2022-12-31 3322.249 2025-02-07 10-K
   2023-12-31 3487.45 2026-02-06 10-K
   2024-12-31 3582.89 2026-02-06 10-K
   2025-12-31 3777.181 2026-02-06 10-K
== SalesRevenueNet
   2008-12-31 2071.685 2011-02-25 10-K
   2009-12-31 1841.616 2012-02-24 10-K
   2010-12-31 2076.719 2013-02-28 10-K
   2011-12-31 2337.183 2014-02-28 10-K
   2012-12-31 2331.036 2015-02-27 10-K
   2013-12-31 2520.013 2016-02-25 10-K
   2014-12-31 2597.809 2017-02-27 10-K
   2015-12-31 2317.149 2018-02-26 10-K
   2016-12-31 2330.934 2018-02-26 10-K
   2017-12-31 2469.283 2018-02-26 10-K
== NetIncomeLoss
   2008-12-31 153.495 2011-02-25 10-K
   2009-12-31 124.623 2011-02-25 10-K
   2010-12-31 173.481 2011-02-25 10-K
   2020-12-31 214.04 2023-02-17 10-K
   2021-12-31 244.097 2024-02-09 10-K
   2022-12-31 239.288 2025-02-07 10-K
   2023-12-31 284.487 2026-02-06 10-K
   2024-12-31 374.541 2026-02-06 10-K
   2025-12-31 392.789 2026-02-06 10-K
== PaymentsToAcquireBusinessesNetOfCashAcquired
   2008-12-31 19.501 2011-02-25 10-K
   2009-12-31 7.577 2012-02-24 10-K
   2010-12-31 3.014 2013-02-28 10-K
   2011-12-31 14.883 2014-02-28 10-K
   2012-12-31 187.84 2015-02-27 10-K
   2016-12-31 202.985 2019-02-21 10-K
   2018-12-31 527.916 2021-02-19 10-K
   2019-12-31 106.328 2022-02-18 10-K
   2020-12-31 164.181 2023-02-17 10-K
   2021-12-31 148.42 2024-02-09 10-K
   2022-12-31 4.1 2025-02-07 10-K
   2023-12-31 16.57 2026-02-06 10-K
   2024-12-31 0.0 2026-02-06 10-K
   2025-12-31 60.204 2026-02-06 10-K
== PaymentsForRepurchaseOfCommonStock
   2008-12-31 57.569 2011-02-25 10-K
   2009-12-31 29.971 2012-02-24 10-K
   2010-12-31 86.473 2013-02-28 10-K
   2011-12-31 102.595 2014-02-28 10-K
   2012-12-31 79.793 2015-02-27 10-K
   2013-12-31 118.813 2016-02-25 10-K
   2014-12-31 340.517 2017-02-27 10-K
   2017-12-31 120.54 2020-02-24 10-K
   2018-12-31 3.905 2021-02-19 10-K
   2019-12-31 86.497 2022-02-18 10-K
   2020-12-31 0.0 2023-02-17 10-K
   2021-12-31 78.148 2024-02-09 10-K
   2022-12-31 92.126 2025-02-07 10-K
   2023-12-31 47.552 2026-02-06 10-K
   2024-12-31 68.638 2026-02-06 10-K
   2025-12-31 365.005 2026-02-06 10-K
== PaymentsOfDividends
