== NetIncomeLoss
   2008-12-31 153.495 2011-02-25 10-K
   2009-12-31 124.623 2011-02-25 10-K
   2010-12-31 173.481 2011-02-25 10-K
   2020-12-31 214.04 2023-02-17 10-K
   2021-12-31 244.097 2024-02-09 10-K
   2022-12-31 239.288 2025-02-07 10-K
   2023-12-31 284.487 2026-02-06 10-K
   2024-12-31 374.541 2026-02-06 10-K
   2025-12-31 392.789 2026-02-06 10-K
== ProfitLoss
   2008-12-31 153.501 2011-02-25 10-K
   2009-12-31 124.597 2012-02-24 10-K
   2010-12-31 173.589 2013-02-28 10-K
   2011-12-31 183.63 2014-02-28 10-K
   2012-12-31 162.42 2015-02-27 10-K
   2013-12-31 171.926 2016-02-25 10-K
   2014-12-31 191.624 2017-02-27 10-K
   2015-12-31 199.295 2018-02-26 10-K
   2016-12-31 205.604 2019-02-21 10-K
   2017-12-31 220.029 2020-02-24 10-K
   2018-12-31 194.766 2021-02-19 10-K
   2019-12-31 242.227 2022-02-18 10-K
   2020-12-31 214.09 2023-02-17 10-K
   2021-12-31 243.638 2024-02-09 10-K
   2022-12-31 239.555 2025-02-07 10-K
   2023-12-31 284.176 2026-02-06 10-K
   2024-12-31 374.178 2026-02-06 10-K
   2025-12-31 392.497 2026-02-06 10-K
== StockholdersEquity
   2009-12-31 1252.845 2011-02-25 10-K
   2010-12-31 1278.923 2012-02-24 10-K
   2011-12-31 1289.776 2013-02-28 10-K
   2012-12-31 1379.89 2014-02-28 10-K
   2013-12-31 1479.757 2015-02-27 10-K
   2014-12-31 1103.407 2016-02-25 10-K
   2015-12-31 1149.411 2017-02-27 10-K
   2016-12-31 1173.95 2018-02-26 10-K
   2017-12-31 1311.738 2019-02-21 10-K
   2018-12-31 1422.556 2020-02-24 10-K
   2019-12-31 1571.916 2021-02-19 10-K
   2020-12-31 1850.389 2022-02-18 10-K
   2021-12-31 1969.407 2023-02-17 10-K
   2022-12-31 2053.935 2024-02-09 10-K
   2023-12-31 2306.824 2025-02-07 10-K
   2024-12-31 2471.888 2026-02-06 10-K
   2025-12-31 2668.096 2026-02-06 10-K
== IncomeTaxesPaidNet
   2023-12-31 112.0 2026-02-06 10-K
   2024-12-31 89.4 2026-02-06 10-K
   2025-12-31 179.351 2026-02-06 10-K
== IncomeTaxesPaid
   2008-12-31 76.002 2011-02-25 10-K
   2009-12-31 60.931 2012-02-24 10-K
   2010-12-31 77.101 2013-02-28 10-K
   2011-12-31 79.367 2014-02-28 10-K
   2012-12-31 64.523 2015-02-27 10-K
   2013-12-31 47.445 2016-02-25 10-K
   2014-12-31 94.578 2017-02-27 10-K
   2015-12-31 79.502 2018-02-26 10-K
   2016-12-31 82.201 2019-02-21 10-K
   2017-12-31 77.349 2020-02-24 10-K
   2018-12-31 96.048 2021-02-19 10-K
   2019-12-31 86.097 2022-02-18 10-K
   2020-12-31 93.575 2023-02-17 10-K
   2021-12-31 94.968 2024-02-09 10-K
   2022-12-31 87.529 2025-02-07 10-K
   2023-12-31 111.994 2025-02-07 10-K
   2024-12-31 89.374 2025-02-07 10-K
== IncomeLossFromContinuingOperationsBeforeIncomeTaxesExtraordinaryItemsNoncontrollingInterest
   2009-12-31 184.058 2012-02-24 10-K
   2010-12-31 254.385 2013-02-28 10-K
   2011-12-31 274.942 2014-02-28 10-K
   2012-12-31 241.373 2015-02-27 10-K
   2013-12-31 264.383 2016-02-25 10-K
   2014-12-31 286.301 2017-02-27 10-K
   2015-12-31 294.571 2018-02-26 10-K
   2016-12-31 280.497 2019-02-21 10-K
   2017-12-31 294.825 2020-02-24 10-K
   2018-12-31 266.02 2021-02-19 10-K
   2019-12-31 342.069 2022-02-18 10-K
   2020-12-31 301.155 2023-02-17 10-K
   2021-12-31 321.655 2024-02-09 10-K
   2022-12-31 334.704 2025-02-07 10-K
   2023-12-31 374.825 2026-02-06 10-K
   2024-12-31 469.765 2026-02-06 10-K
   2025-12-31 491.378 2026-02-06 10-K
== IncomeLossFromContinuingOperationsBeforeIncomeTaxesMinorityInterestAndIncomeLossFromEquityMethodInvestments
== WeightedAverageNumberOfDilutedSharesOutstanding
   2009-12-31 69.785 2012-02-24 10-K
   2010-12-31 69.815 2013-02-28 10-K
   2011-12-31 69.274 2014-02-28 10-K
   2012-12-31 68.395 2015-02-27 10-K
   2013-12-31 68.208 2016-02-25 10-K
   2014-12-31 67.292 2017-02-27 10-K
   2015-12-31 64.492 2018-02-26 10-K
   2016-12-31 64.849 2019-02-21 10-K
   2017-12-31 64.596 2020-02-24 10-K
   2018-12-31 64.958 2021-02-19 10-K
   2019-12-31 66.15 2022-02-18 10-K
   2020-12-31 66.657 2023-02-17 10-K
   2021-12-31 67.682 2024-02-09 10-K
   2022-12-31 66.719 2025-02-07 10-K
   2023-12-31 66.905 2026-02-06 10-K
   2024-12-31 67.691 2026-02-06 10-K
   2025-12-31 66.725 2026-02-06 10-K
== PaymentsOfDividendsCommonStock
   2008-12-31 38.063 2011-02-25 10-K
   2009-12-31 40.604 2012-02-24 10-K
   2010-12-31 44.485 2013-02-28 10-K
   2011-12-31 53.308 2014-02-28 10-K
   2012-12-31 58.442 2015-02-27 10-K
   2013-12-31 66.133 2016-02-25 10-K
   2014-12-31 71.072 2017-02-27 10-K
   2015-12-31 71.247 2018-02-26 10-K
   2016-12-31 76.659 2019-02-21 10-K
   2017-12-31 79.944 2020-02-24 10-K
   2018-12-31 82.346 2021-02-19 10-K
   2019-12-31 90.208 2022-02-18 10-K
   2020-12-31 92.658 2023-02-17 10-K
   2021-12-31 98.509 2024-02-09 10-K
   2022-12-31 99.461 2025-02-07 10-K
   2023-12-31 103.683 2026-02-06 10-K
   2024-12-31 114.055 2026-02-06 10-K
   2025-12-31 120.784 2026-02-06 10-K
== PaymentsOfDividends
== RestructuringCharges
   2009-12-31 7.563 2012-02-24 10-K
   2010-12-31 0.093 2013-02-28 10-K
   2011-12-31 -0.071 2014-02-28 10-K
   2012-12-31 3.102 2015-02-27 10-K
   2013-12-31 11.8 2016-02-25 10-K
   2017-12-31 2.208 2020-02-24 10-K
   2018-12-31 63.829 2021-02-19 10-K
   2019-12-31 20.472 2022-02-18 10-K
   2020-12-31 26.492 2023-02-17 10-K
   2021-12-31 23.24 2024-02-09 10-K
   2022-12-31 6.597 2025-02-07 10-K
   2023-12-31 45.004 2026-02-06 10-K
   2024-12-31 13.002 2026-02-06 10-K
   2025-12-31 9.837 2026-02-06 10-K
== ProceedsFromStockOptionsExercised
   2008-12-31 13.913 2011-02-25 10-K
   2009-12-31 9.227 2012-02-24 10-K
   2010-12-31 28.82 2013-02-28 10-K
   2011-12-31 26.078 2014-02-28 10-K
   2012-12-31 44.637 2015-02-27 10-K
   2013-12-31 42.684 2016-02-25 10-K
   2014-12-31 36.015 2017-02-27 10-K
   2015-12-31 64.759 2018-02-26 10-K
   2016-12-31 55.347 2019-02-21 10-K
   2017-12-31 73.905 2020-02-24 10-K
   2018-12-31 88.156 2021-02-19 10-K
   2019-12-31 90.834 2022-02-18 10-K
   2020-12-31 68.555 2023-02-17 10-K
   2021-12-31 59.906 2024-02-09 10-K
   2022-12-31 28.512 2025-02-07 10-K
   2023-12-31 53.983 2026-02-06 10-K
   2024-12-31 54.809 2026-02-06 10-K
   2025-12-31 18.891 2026-02-06 10-K
